# Pulseq sequence file
# Created by MATLAB mr toolbox

# Format of blocks:
#  #  D RF  GX  GY  GZ ADC
[BLOCKS]
   1  0  1   0   0   1  0
   2  0  0   0   0   2  0
   3  1  0   0   0   0  0
   4  0  0   3   4   0  1
   5  0  0   0   0   5  0
   6  2  0   0   0   0  0
   7  0  1   0   0   1  0
   8  0  0   0   0   2  0
   9  1  0   0   0   0  0
  10  0  0   6   7   0  1
  11  0  0   0   0   5  0
  12  2  0   0   0   0  0
  13  0  1   0   0   1  0
  14  0  0   0   0   2  0
  15  1  0   0   0   0  0
  16  0  0   8   9   0  1
  17  0  0   0   0   5  0
  18  2  0   0   0   0  0
  19  0  1   0   0   1  0
  20  0  0   0   0   2  0
  21  1  0   0   0   0  0
  22  0  0  10  11   0  1
  23  0  0   0   0   5  0
  24  2  0   0   0   0  0
  25  0  1   0   0   1  0
  26  0  0   0   0   2  0
  27  1  0   0   0   0  0
  28  0  0  12  13   0  1
  29  0  0   0   0   5  0
  30  2  0   0   0   0  0
  31  0  1   0   0   1  0
  32  0  0   0   0   2  0
  33  1  0   0   0   0  0
  34  0  0  14  15   0  1
  35  0  0   0   0   5  0
  36  2  0   0   0   0  0
  37  0  1   0   0   1  0
  38  0  0   0   0   2  0
  39  1  0   0   0   0  0
  40  0  0  16  17   0  1
  41  0  0   0   0   5  0
  42  2  0   0   0   0  0
  43  0  1   0   0   1  0
  44  0  0   0   0   2  0
  45  1  0   0   0   0  0
  46  0  0  18  19   0  1
  47  0  0   0   0   5  0
  48  2  0   0   0   0  0
  49  0  1   0   0   1  0
  50  0  0   0   0   2  0
  51  1  0   0   0   0  0
  52  0  0  20  21   0  1
  53  0  0   0   0   5  0
  54  2  0   0   0   0  0
  55  0  1   0   0   1  0
  56  0  0   0   0   2  0
  57  1  0   0   0   0  0
  58  0  0  22  23   0  1
  59  0  0   0   0   5  0
  60  2  0   0   0   0  0
  61  0  1   0   0   1  0
  62  0  0   0   0   2  0
  63  1  0   0   0   0  0
  64  0  0  24  25   0  1
  65  0  0   0   0   5  0
  66  2  0   0   0   0  0
  67  0  1   0   0   1  0
  68  0  0   0   0   2  0
  69  1  0   0   0   0  0
  70  0  0  26  27   0  1
  71  0  0   0   0   5  0
  72  2  0   0   0   0  0
  73  0  1   0   0   1  0
  74  0  0   0   0   2  0
  75  1  0   0   0   0  0
  76  0  0  28   3   0  1
  77  0  0   0   0   5  0
  78  2  0   0   0   0  0
  79  0  1   0   0   1  0
  80  0  0   0   0   2  0
  81  1  0   0   0   0  0
  82  0  0  29   6   0  1
  83  0  0   0   0   5  0
  84  2  0   0   0   0  0
  85  0  1   0   0   1  0
  86  0  0   0   0   2  0
  87  1  0   0   0   0  0
  88  0  0  30   8   0  1
  89  0  0   0   0   5  0
  90  2  0   0   0   0  0
  91  0  1   0   0   1  0
  92  0  0   0   0   2  0
  93  1  0   0   0   0  0
  94  0  0  31  10   0  1
  95  0  0   0   0   5  0
  96  2  0   0   0   0  0
  97  0  1   0   0   1  0
  98  0  0   0   0   2  0
  99  1  0   0   0   0  0
 100  0  0  32  12   0  1
 101  0  0   0   0   5  0
 102  2  0   0   0   0  0
 103  0  1   0   0   1  0
 104  0  0   0   0   2  0
 105  1  0   0   0   0  0
 106  0  0  33  14   0  1
 107  0  0   0   0   5  0
 108  2  0   0   0   0  0
 109  0  1   0   0   1  0
 110  0  0   0   0   2  0
 111  1  0   0   0   0  0
 112  0  0  34  16   0  1
 113  0  0   0   0   5  0
 114  2  0   0   0   0  0
 115  0  1   0   0   1  0
 116  0  0   0   0   2  0
 117  1  0   0   0   0  0
 118  0  0  35  18   0  1
 119  0  0   0   0   5  0
 120  2  0   0   0   0  0
 121  0  1   0   0   1  0
 122  0  0   0   0   2  0
 123  1  0   0   0   0  0
 124  0  0  36  20   0  1
 125  0  0   0   0   5  0
 126  2  0   0   0   0  0
 127  0  1   0   0   1  0
 128  0  0   0   0   2  0
 129  1  0   0   0   0  0
 130  0  0  37  22   0  1
 131  0  0   0   0   5  0
 132  2  0   0   0   0  0
 133  0  1   0   0   1  0
 134  0  0   0   0   2  0
 135  1  0   0   0   0  0
 136  0  0  38  24   0  1
 137  0  0   0   0   5  0
 138  2  0   0   0   0  0
 139  0  1   0   0   1  0
 140  0  0   0   0   2  0
 141  1  0   0   0   0  0
 142  0  0  39  26   0  1
 143  0  0   0   0   5  0
 144  2  0   0   0   0  0
 145  0  1   0   0   1  0
 146  0  0   0   0   2  0
 147  1  0   0   0   0  0
 148  0  0  40  28   0  1
 149  0  0   0   0   5  0
 150  2  0   0   0   0  0
 151  0  1   0   0   1  0
 152  0  0   0   0   2  0
 153  1  0   0   0   0  0
 154  0  0  41  29   0  1
 155  0  0   0   0   5  0
 156  2  0   0   0   0  0
 157  0  1   0   0   1  0
 158  0  0   0   0   2  0
 159  1  0   0   0   0  0
 160  0  0  42  30   0  1
 161  0  0   0   0   5  0
 162  2  0   0   0   0  0
 163  0  1   0   0   1  0
 164  0  0   0   0   2  0
 165  1  0   0   0   0  0
 166  0  0  43  31   0  1
 167  0  0   0   0   5  0
 168  2  0   0   0   0  0
 169  0  1   0   0   1  0
 170  0  0   0   0   2  0
 171  1  0   0   0   0  0
 172  0  0  44  32   0  1
 173  0  0   0   0   5  0
 174  2  0   0   0   0  0
 175  0  1   0   0   1  0
 176  0  0   0   0   2  0
 177  1  0   0   0   0  0
 178  0  0  45  33   0  1
 179  0  0   0   0   5  0
 180  2  0   0   0   0  0
 181  0  1   0   0   1  0
 182  0  0   0   0   2  0
 183  1  0   0   0   0  0
 184  0  0  46  34   0  1
 185  0  0   0   0   5  0
 186  2  0   0   0   0  0
 187  0  1   0   0   1  0
 188  0  0   0   0   2  0
 189  1  0   0   0   0  0
 190  0  0  47  35   0  1
 191  0  0   0   0   5  0
 192  2  0   0   0   0  0
 193  0  1   0   0   1  0
 194  0  0   0   0   2  0
 195  1  0   0   0   0  0
 196  0  0  48  36   0  1
 197  0  0   0   0   5  0
 198  2  0   0   0   0  0
 199  0  1   0   0   1  0
 200  0  0   0   0   2  0
 201  1  0   0   0   0  0
 202  0  0  49  37   0  1
 203  0  0   0   0   5  0
 204  2  0   0   0   0  0
 205  0  1   0   0   1  0
 206  0  0   0   0   2  0
 207  1  0   0   0   0  0
 208  0  0  50  38   0  1
 209  0  0   0   0   5  0
 210  2  0   0   0   0  0
 211  0  1   0   0   1  0
 212  0  0   0   0   2  0
 213  1  0   0   0   0  0
 214  0  0  51  39   0  1
 215  0  0   0   0   5  0
 216  2  0   0   0   0  0
 217  0  1   0   0   1  0
 218  0  0   0   0   2  0
 219  1  0   0   0   0  0
 220  0  0   4  40   0  1
 221  0  0   0   0   5  0
 222  2  0   0   0   0  0
 223  0  1   0   0   1  0
 224  0  0   0   0   2  0
 225  1  0   0   0   0  0
 226  0  0   7  41   0  1
 227  0  0   0   0   5  0
 228  2  0   0   0   0  0
 229  0  1   0   0   1  0
 230  0  0   0   0   2  0
 231  1  0   0   0   0  0
 232  0  0   9  42   0  1
 233  0  0   0   0   5  0
 234  2  0   0   0   0  0
 235  0  1   0   0   1  0
 236  0  0   0   0   2  0
 237  1  0   0   0   0  0
 238  0  0  11  43   0  1
 239  0  0   0   0   5  0
 240  2  0   0   0   0  0
 241  0  1   0   0   1  0
 242  0  0   0   0   2  0
 243  1  0   0   0   0  0
 244  0  0  13  44   0  1
 245  0  0   0   0   5  0
 246  2  0   0   0   0  0
 247  0  1   0   0   1  0
 248  0  0   0   0   2  0
 249  1  0   0   0   0  0
 250  0  0  15  45   0  1
 251  0  0   0   0   5  0
 252  2  0   0   0   0  0
 253  0  1   0   0   1  0
 254  0  0   0   0   2  0
 255  1  0   0   0   0  0
 256  0  0  17  46   0  1
 257  0  0   0   0   5  0
 258  2  0   0   0   0  0
 259  0  1   0   0   1  0
 260  0  0   0   0   2  0
 261  1  0   0   0   0  0
 262  0  0  19  47   0  1
 263  0  0   0   0   5  0
 264  2  0   0   0   0  0
 265  0  1   0   0   1  0
 266  0  0   0   0   2  0
 267  1  0   0   0   0  0
 268  0  0  21  48   0  1
 269  0  0   0   0   5  0
 270  2  0   0   0   0  0
 271  0  1   0   0   1  0
 272  0  0   0   0   2  0
 273  1  0   0   0   0  0
 274  0  0  23  49   0  1
 275  0  0   0   0   5  0
 276  2  0   0   0   0  0
 277  0  1   0   0   1  0
 278  0  0   0   0   2  0
 279  1  0   0   0   0  0
 280  0  0  25  50   0  1
 281  0  0   0   0   5  0
 282  2  0   0   0   0  0
 283  0  1   0   0   1  0
 284  0  0   0   0   2  0
 285  1  0   0   0   0  0
 286  0  0  27  51   0  1
 287  0  0   0   0   5  0
 288  2  0   0   0   0  0
 289  0  2   0   0   1  0
 290  0  0   0   0   2  0
 291  1  0   0   0   0  0
 292  0  0   3   4   0  1
 293  0  0   0   0   5  0
 294  2  0   0   0   0  0
 295  0  2   0   0   1  0
 296  0  0   0   0   2  0
 297  1  0   0   0   0  0
 298  0  0   6   7   0  1
 299  0  0   0   0   5  0
 300  2  0   0   0   0  0
 301  0  2   0   0   1  0
 302  0  0   0   0   2  0
 303  1  0   0   0   0  0
 304  0  0   8   9   0  1
 305  0  0   0   0   5  0
 306  2  0   0   0   0  0
 307  0  2   0   0   1  0
 308  0  0   0   0   2  0
 309  1  0   0   0   0  0
 310  0  0  10  11   0  1
 311  0  0   0   0   5  0
 312  2  0   0   0   0  0
 313  0  2   0   0   1  0
 314  0  0   0   0   2  0
 315  1  0   0   0   0  0
 316  0  0  12  13   0  1
 317  0  0   0   0   5  0
 318  2  0   0   0   0  0
 319  0  2   0   0   1  0
 320  0  0   0   0   2  0
 321  1  0   0   0   0  0
 322  0  0  14  15   0  1
 323  0  0   0   0   5  0
 324  2  0   0   0   0  0
 325  0  2   0   0   1  0
 326  0  0   0   0   2  0
 327  1  0   0   0   0  0
 328  0  0  16  17   0  1
 329  0  0   0   0   5  0
 330  2  0   0   0   0  0
 331  0  2   0   0   1  0
 332  0  0   0   0   2  0
 333  1  0   0   0   0  0
 334  0  0  18  19   0  1
 335  0  0   0   0   5  0
 336  2  0   0   0   0  0
 337  0  2   0   0   1  0
 338  0  0   0   0   2  0
 339  1  0   0   0   0  0
 340  0  0  20  21   0  1
 341  0  0   0   0   5  0
 342  2  0   0   0   0  0
 343  0  2   0   0   1  0
 344  0  0   0   0   2  0
 345  1  0   0   0   0  0
 346  0  0  22  23   0  1
 347  0  0   0   0   5  0
 348  2  0   0   0   0  0
 349  0  2   0   0   1  0
 350  0  0   0   0   2  0
 351  1  0   0   0   0  0
 352  0  0  24  25   0  1
 353  0  0   0   0   5  0
 354  2  0   0   0   0  0
 355  0  2   0   0   1  0
 356  0  0   0   0   2  0
 357  1  0   0   0   0  0
 358  0  0  26  27   0  1
 359  0  0   0   0   5  0
 360  2  0   0   0   0  0
 361  0  2   0   0   1  0
 362  0  0   0   0   2  0
 363  1  0   0   0   0  0
 364  0  0  28   3   0  1
 365  0  0   0   0   5  0
 366  2  0   0   0   0  0
 367  0  2   0   0   1  0
 368  0  0   0   0   2  0
 369  1  0   0   0   0  0
 370  0  0  29   6   0  1
 371  0  0   0   0   5  0
 372  2  0   0   0   0  0
 373  0  2   0   0   1  0
 374  0  0   0   0   2  0
 375  1  0   0   0   0  0
 376  0  0  30   8   0  1
 377  0  0   0   0   5  0
 378  2  0   0   0   0  0
 379  0  2   0   0   1  0
 380  0  0   0   0   2  0
[RF]
1      109.717 1 2 -6666.67 0
2      109.717 1 2 -4000 0
3      109.717 1 2 -1333.33 0
4      109.717 1 2 1333.33 0
5      109.717 1 2 4000 0

# Format of arbitrary gradients:
# id amplitude shape_id
# ..      Hz/m     ....
[GRAD]
3  1.28112e+06 3 
4  1.20923e+06 4 
6  1.27502e+06 5 
7  1.20346e+06 6 
8  1.26892e+06 7 
9  1.19764e+06 8 
10  1.26285e+06 9 
11  1.19177e+06 10 
12  1.25679e+06 11 
13  1.18606e+06 12 
14  1.25074e+06 13 
15  1.18033e+06 14 
16  1.24473e+06 15 
17   1.1745e+06 16 
18  1.23879e+06 17 
19  1.17964e+06 18 
20  1.23287e+06 19 
21  1.23813e+06 20 
22  1.22696e+06 21 
23  1.27544e+06 22 
24  1.22105e+06 23 
25  1.29092e+06 24 
26  1.21511e+06 25 
27  1.28725e+06 26 
28  1.20923e+06 27 
29  1.20346e+06 28 
30  1.19764e+06 29 
31  1.19177e+06 30 
32  1.18606e+06 31 
33  1.18033e+06 32 
34   1.1745e+06 33 
35  1.17964e+06 34 
36  1.23813e+06 35 
37  1.27544e+06 36 
38  1.29092e+06 37 
39  1.28725e+06 38 
40  1.28112e+06 39 
41  1.27502e+06 40 
42  1.26892e+06 41 
43  1.26285e+06 42 
44  1.25679e+06 43 
45  1.25074e+06 44 
46  1.24473e+06 45 
47  1.23879e+06 46 
48  1.23287e+06 47 
49  1.22696e+06 48 
50  1.22105e+06 49 
51  1.21511e+06 50 

# Format of trapezoid gradients:
# id amplitude rise flat fall
# ..      Hz/m   us   us   us
[TRAP]
 1       533333 100 1500 100
 2      -468864  90  820  90
 5       755162 140 2120 140

# Format of ADC events:
# id num dwell delay freq phase
# ..  ..    ns    us   Hz   rad
[ADC]
 1 886  10000   0 0 0

# Format of delays:
# id delay (us)
[DELAYS]
1 3150
2 36050

# Sequence Shapes
[SHAPES]

shape_id 1
num_samples 1600
0
0
99
4.10555e-08
1.11617e-07
2.17713e-07
3.59505e-07
5.37148e-07
7.50789e-07
1.00057e-06
1.28661e-06
1.60904e-06
1.96797e-06
2.3635e-06
2.79573e-06
3.26475e-06
3.77063e-06
4.31345e-06
4.89327e-06
5.51013e-06
6.16408e-06
6.85515e-06
7.58338e-06
8.34877e-06
9.15134e-06
9.99107e-06
1.0868e-05
1.1782e-05
1.27332e-05
1.37214e-05
1.47466e-05
1.58088e-05
1.69079e-05
1.80439e-05
1.92166e-05
2.04259e-05
2.16717e-05
2.2954e-05
2.42726e-05
2.56274e-05
2.70182e-05
2.84449e-05
2.99073e-05
3.14053e-05
3.29386e-05
3.45071e-05
3.61106e-05
3.77488e-05
3.94217e-05
4.11288e-05
4.287e-05
4.46451e-05
4.64538e-05
4.82958e-05
5.01709e-05
5.20787e-05
5.4019e-05
5.59914e-05
5.79957e-05
6.00315e-05
6.20986e-05
6.41965e-05
6.63248e-05
6.84834e-05
7.06717e-05
7.28894e-05
7.51361e-05
7.74115e-05
7.9715e-05
8.20463e-05
8.4405e-05
8.67906e-05
8.92026e-05
9.16407e-05
9.41044e-05
9.65932e-05
9.91065e-05
0.000101644
0.000104205
0.000106789
0.000109396
0.000112025
0.000114676
0.000117347
0.000120039
0.000122751
0.000125482
0.000128232
0.000131
0.000133785
0.000136588
0.000139407
0.000142241
0.000145091
0.000147955
0.000150833
0.000153724
0.000156628
0.000159543
0.00016247
0.000165407
0.000168354
0.00017131
0.000174275
0.000177247
0.000180226
0.000183212
0.000186202
0.000189198
0.000192198
0.000195201
0.000198206
0.000201213
0.000204222
0.00020723
0.000210238
0.000213244
0.000216248
0.000219249
0.000222247
0.000225239
0.000228227
0.000231208
0.000234182
0.000237147
0.000240105
0.000243052
0.000245989
0.000248915
0.000251828
0.000254728
0.000257614
0.000260486
0.000263341
0.00026618
0.000269002
0.000271805
0.000274589
0.000277352
0.000280095
0.000282815
0.000285512
0.000288186
0.000290835
0.000293458
0.000296054
0.000298623
0.000301163
0.000303674
0.000306154
0.000308603
0.00031102
0.000313403
0.000315753
0.000318067
0.000320345
0.000322586
0.00032479
0.000326954
0.000329078
0.000331162
0.000333203
0.000335202
0.000337158
0.000339068
0.000340933
0.000342751
0.000344522
0.000346244
0.000347917
0.00034954
0.000351111
0.000352629
0.000354094
0.000355505
0.000356861
0.000358161
0.000359403
0.000360588
0.000361713
0.000362779
0.000363783
0.000364726
0.000365606
0.000366422
0.000367174
0.00036786
0.000368479
0.000369031
0.000369515
0.000369929
0.000370273
0.000370546
0.000370747
0.000370875
0.000370929
0.000370909
0.000370813
0.00037064
0.00037039
0.000370062
0.000369655
0.000369167
0.000368599
0.000367949
0.000367217
0.000366401
0.0003655
0.000364515
0.000363444
0.000362286
0.000361041
0.000359707
0.000358284
0.000356772
0.000355168
0.000353473
0.000351686
0.000349806
0.000347831
0.000345763
0.000343599
0.000341339
0.000338982
0.000336528
0.000333976
0.000331325
0.000328575
0.000325724
0.000322772
0.000319719
0.000316563
0.000313305
0.000309943
0.000306477
0.000302907
0.000299231
0.000295449
0.00029156
0.000287565
0.000283462
0.00027925
0.00027493
0.000270501
0.000265962
0.000261313
0.000256552
0.000251681
0.000246698
0.000241602
0.000236394
0.000231073
0.000225638
0.000220089
0.000214426
0.000208648
0.000202755
0.000196746
0.000190622
0.000184381
0.000178024
0.00017155
0.000164959
0.00015825
0.000151424
0.000144479
0.000137417
0.000130236
0.000122936
0.000115517
0.000107979
0.000100322
9.25454e-05
8.46492e-05
7.66332e-05
6.84973e-05
6.02414e-05
5.18653e-05
4.33691e-05
3.47526e-05
2.60158e-05
1.71587e-05
8.18109e-06
-9.16883e-07
-1.01353e-05
-1.9474e-05
-2.89331e-05
-3.85126e-05
-4.82123e-05
-5.80321e-05
-6.7972e-05
-7.8032e-05
-8.82117e-05
-9.85112e-05
-0.00010893
-0.000119469
-0.000130126
-0.000140903
-0.000151799
-0.000162813
-0.000173945
-0.000185195
-0.000196564
-0.000208049
-0.000219652
-0.000231372
-0.000243209
-0.000255161
-0.00026723
-0.000279413
-0.000291712
-0.000304126
-0.000316653
-0.000329295
-0.00034205
-0.000354917
-0.000367897
-0.000380988
-0.000394191
-0.000407505
-0.000420928
-0.000434462
-0.000448104
-0.000461855
-0.000475713
-0.000489679
-0.000503751
-0.000517929
-0.000532212
-0.000546599
-0.00056109
-0.000575684
-0.000590381
-0.000605179
-0.000620077
-0.000635076
-0.000650173
-0.000665369
-0.000680662
-0.000696052
-0.000711538
-0.000727118
-0.000742792
-0.00075856
-0.000774419
-0.000790369
-0.00080641
-0.00082254
-0.000838758
-0.000855063
-0.000871455
-0.000887931
-0.000904492
-0.000921136
-0.000937862
-0.000954668
-0.000971554
-0.000988519
-0.00100556
-0.00102268
-0.00103987
-0.00105714
-0.00107448
-0.0010919
-0.00110938
-0.00112693
-0.00114455
-0.00116224
-0.00117999
-0.0011978
-0.00121568
-0.00123362
-0.00125162
-0.00126968
-0.0012878
-0.00130597
-0.0013242
0.00134248
0.00136082
0.0013792
0.00139763
0.00141611
0.00143464
0.00145321
0.00147183
0.00149048
0.00150918
0.00152792
0.00154669
0.0015655
0.00158434
0.00160322
0.00162212
0.00164106
0.00166003
0.00167902
0.00169803
0.00171707
0.00173614
0.00175522
0.00177432
0.00179343
0.00181256
0.00183171
0.00185087
0.00187003
0.00188921
0.00190839
0.00192758
0.00194677
0.00196596
0.00198515
0.00200434
0.00202353
0.00204271
0.00206189
0.00208105
0.00210021
0.00211935
0.00213848
0.00215759
0.00217668
0.00219576
0.00221481
0.00223384
0.00225285
0.00227183
0.00229078
0.0023097
0.00232859
0.00234745
0.00236626
0.00238505
0.00240379
0.00242249
0.00244115
0.00245976
0.00247832
0.00249684
0.00251531
0.00253372
0.00255208
0.00257038
0.00258863
0.00260681
0.00262494
0.002643
0.00266099
0.00267892
0.00269678
0.00271457
0.00273228
0.00274992
0.00276748
0.00278497
0.00280237
0.0028197
0.00283693
0.00285409
0.00287115
0.00288813
0.00290501
0.0029218
0.0029385
0.00295509
0.00297159
0.00298799
0.00300429
0.00302048
0.00303657
0.00305254
0.00306841
0.00308417
0.00309981
0.00311534
0.00313075
0.00314604
0.00316122
0.00317627
0.00319119
0.00320599
0.00322066
0.00323521
0.00324962
0.0032639
0.00327804
0.00329205
0.00330592
0.00331965
0.00333324
0.00334668
0.00335998
0.00337314
0.00338614
0.003399
0.0034117
0.00342426
0.00343665
0.00344889
0.00346098
0.0034729
0.00348466
0.00349626
0.0035077
0.00351897
0.00353007
0.003541
0.00355177
0.00356236
0.00357277
0.00358302
0.00359308
0.00360297
0.00361268
0.00362221
0.00363156
0.00364072
0.0036497
0.00365849
0.00366709
0.00367551
0.00368373
0.00369177
0.00369961
0.00370725
0.0037147
0.00372195
0.00372901
0.00373587
0.00374252
0.00374897
0.00375523
0.00376127
0.00376711
0.00377275
0.00377818
0.00378339
0.0037884
0.0037932
0.00379779
0.00380216
0.00380632
0.00381027
0.003814
0.00381751
0.0038208
0.00382388
0.00382673
0.00382937
0.00383178
0.00383397
0.00383594
0.00383769
0.0038392
0.0038405
0.00384157
0.00384241
0.00384302
0.0038434
0.00384356
0.00384348
0.00384318
0.00384264
0.00384187
0.00384087
0.00383964
0.00383817
0.00383647
0.00383454
0.00383237
0.00382996
0.00382732
0.00382444
0.00382133
0.00381797
0.00381438
0.00381056
0.00380649
0.00380219
0.00379764
0.00379286
0.00378784
0.00378258
0.00377708
0.00377134
0.00376536
0.00375914
0.00375268
0.00374598
0.00373904
0.00373186
0.00372444
0.00371677
0.00370887
0.00370073
0.00369234
0.00368372
0.00367486
0.00366575
0.00365641
0.00364683
0.003637
0.00362694
0.00361664
0.0036061
0.00359532
0.00358431
0.00357305
0.00356156
0.00354984
0.00353787
0.00352567
0.00351323
0.00350056
0.00348765
0.00347451
0.00346114
0.00344753
0.00343369
0.00341961
0.00340531
0.00339077
0.003376
0.00336101
0.00334578
0.00333033
0.00331465
0.00329875
0.00328261
0.00326626
0.00324968
0.00323287
0.00321584
0.00319859
0.00318113
0.00316344
0.00314553
0.0031274
0.00310906
0.0030905
0.00307173
0.00305275
0.00303355
0.00301414
0.00299452
0.00297469
0.00295465
0.0029344
0.00291395
0.0028933
0.00287244
0.00285138
0.00283012
0.00280866
0.00278701
0.00276515
0.0027431
0.00272086
0.00269842
0.0026758
0.00265298
0.00262997
0.00260678
0.00258341
0.00255985
0.0025361
0.00251218
0.00248808
0.0024638
0.00243934
0.00241471
0.00238991
0.00236493
0.00233979
0.00231448
0.002289
0.00226336
0.00223755
0.00221159
0.00218546
0.00215918
0.00213274
0.00210615
0.00207941
0.00205252
0.00202548
0.00199829
0.00197096
0.00194348
0.00191587
0.00188811
0.00186022
0.00183219
0.00180404
0.00177575
0.00174733
0.00171878
0.00169011
0.00166132
0.0016324
0.00160337
0.00157422
0.00154495
0.00151557
0.00148609
0.00145649
0.00142679
0.00139698
0.00136707
0.00133706
0.00130695
0.00127675
0.00124646
0.00121607
0.00118559
0.00115503
0.00112438
0.00109365
0.00106284
0.00103195
0.00100099
0.000969951
0.000938842
0.000907665
0.000876421
0.000845112
0.000813741
0.000782311
0.000750823
0.00071928
0.000687684
0.000656037
0.000624342
0.000592601
0.000560817
0.000528991
0.000497127
0.000465226
0.00043329
0.000401323
0.000369326
0.000337302
0.000305253
0.000273181
0.00024109
0.00020898
0.000176856
0.000144718
0.000112569
8.04126e-05
4.82499e-05
1.60837e-05
-1.60837e-05
-4.82499e-05
-8.04126e-05
-0.000112569
-0.000144718
-0.000176856
-0.00020898
-0.00024109
-0.000273181
-0.000305253
-0.000337302
-0.000369326
-0.000401323
-0.00043329
-0.000465226
-0.000497127
-0.000528991
-0.000560817
-0.000592601
-0.000624342
-0.000656037
-0.000687684
-0.00071928
-0.000750823
-0.000782311
-0.000813741
-0.000845112
-0.000876421
-0.000907665
-0.000938842
-0.000969951
-0.00100099
-0.00103195
-0.00106284
-0.00109365
-0.00112438
-0.00115503
-0.00118559
-0.00121607
-0.00124646
-0.00127675
-0.00130695
-0.00133706
-0.00136707
-0.00139698
-0.00142679
-0.00145649
-0.00148609
-0.00151557
-0.00154495
-0.00157422
-0.00160337
-0.0016324
-0.00166132
-0.00169011
-0.00171878
-0.00174733
-0.00177575
-0.00180404
-0.00183219
-0.00186022
-0.00188811
-0.00191587
-0.00194348
-0.00197096
-0.00199829
-0.00202548
-0.00205252
-0.00207941
-0.00210615
-0.00213274
-0.00215918
-0.00218546
-0.00221159
-0.00223755
-0.00226336
-0.002289
-0.00231448
-0.00233979
-0.00236493
-0.00238991
-0.00241471
-0.00243934
-0.0024638
-0.00248808
-0.00251218
-0.0025361
-0.00255985
-0.00258341
-0.00260678
-0.00262997
-0.00265298
-0.0026758
-0.00269842
-0.00272086
-0.0027431
-0.00276515
-0.00278701
-0.00280866
-0.00283012
-0.00285138
-0.00287244
-0.0028933
-0.00291395
-0.0029344
-0.00295465
-0.00297469
-0.00299452
-0.00301414
-0.00303355
-0.00305275
-0.00307173
-0.0030905
-0.00310906
-0.0031274
-0.00314553
-0.00316344
-0.00318113
-0.00319859
-0.00321584
-0.00323287
-0.00324968
-0.00326626
-0.00328261
-0.00329875
-0.00331465
-0.00333033
-0.00334578
-0.00336101
-0.003376
-0.00339077
-0.00340531
-0.00341961
-0.00343369
-0.00344753
-0.00346114
-0.00347451
-0.00348765
-0.00350056
-0.00351323
-0.00352567
-0.00353787
-0.00354984
-0.00356156
-0.00357305
-0.00358431
-0.00359532
-0.0036061
-0.00361664
-0.00362694
-0.003637
-0.00364683
-0.00365641
-0.00366575
-0.00367486
-0.00368372
-0.00369234
-0.00370073
-0.00370887
-0.00371677
-0.00372444
-0.00373186
-0.00373904
-0.00374598
-0.00375268
-0.00375914
-0.00376536
-0.00377134
-0.00377708
-0.00378258
-0.00378784
-0.00379286
-0.00379764
-0.00380219
-0.00380649
-0.00381056
-0.00381438
-0.00381797
-0.00382133
-0.00382444
-0.00382732
-0.00382996
-0.00383237
-0.00383454
-0.00383647
-0.00383817
-0.00383964
-0.00384087
-0.00384187
-0.00384264
-0.00384318
-0.00384348
-0.00384356
-0.0038434
-0.00384302
-0.00384241
-0.00384157
-0.0038405
-0.0038392
-0.00383769
-0.00383594
-0.00383397
-0.00383178
-0.00382937
-0.00382673
-0.00382388
-0.0038208
-0.00381751
-0.003814
-0.00381027
-0.00380632
-0.00380216
-0.00379779
-0.0037932
-0.0037884
-0.00378339
-0.00377818
-0.00377275
-0.00376711
-0.00376127
-0.00375523
-0.00374897
-0.00374252
-0.00373587
-0.00372901
-0.00372195
-0.0037147
-0.00370725
-0.00369961
-0.00369177
-0.00368373
-0.00367551
-0.00366709
-0.00365849
-0.0036497
-0.00364072
-0.00363156
-0.00362221
-0.00361268
-0.00360297
-0.00359308
-0.00358302
-0.00357277
-0.00356236
-0.00355177
-0.003541
-0.00353007
-0.00351897
-0.0035077
-0.00349626
-0.00348466
-0.0034729
-0.00346098
-0.00344889
-0.00343665
-0.00342426
-0.0034117
-0.003399
-0.00338614
-0.00337314
-0.00335998
-0.00334668
-0.00333324
-0.00331965
-0.00330592
-0.00329205
-0.00327804
-0.0032639
-0.00324962
-0.00323521
-0.00322066
-0.00320599
-0.00319119
-0.00317627
-0.00316122
-0.00314604
-0.00313075
-0.00311534
-0.00309981
-0.00308417
-0.00306841
-0.00305254
-0.00303657
-0.00302048
-0.00300429
-0.00298799
-0.00297159
-0.00295509
-0.0029385
-0.0029218
-0.00290501
-0.00288813
-0.00287115
-0.00285409
-0.00283693
-0.0028197
-0.00280237
-0.00278497
-0.00276748
-0.00274992
-0.00273228
-0.00271457
-0.00269678
-0.00267892
-0.00266099
-0.002643
-0.00262494
-0.00260681
-0.00258863
-0.00257038
-0.00255208
-0.00253372
-0.00251531
-0.00249684
-0.00247832
-0.00245976
-0.00244115
-0.00242249
-0.00240379
-0.00238505
-0.00236626
-0.00234745
-0.00232859
-0.0023097
-0.00229078
-0.00227183
-0.00225285
-0.00223384
-0.00221481
-0.00219576
-0.00217668
-0.00215759
-0.00213848
-0.00211935
-0.00210021
-0.00208105
-0.00206189
-0.00204271
-0.00202353
-0.00200434
-0.00198515
-0.00196596
-0.00194677
-0.00192758
-0.00190839
-0.00188921
-0.00187003
-0.00185087
-0.00183171
-0.00181256
-0.00179343
-0.00177432
-0.00175522
-0.00173614
-0.00171707
-0.00169803
-0.00167902
-0.00166003
-0.00164106
-0.00162212
-0.00160322
-0.00158434
-0.0015655
-0.00154669
-0.00152792
-0.00150918
-0.00149048
-0.00147183
-0.00145321
-0.00143464
-0.00141611
-0.00139763
-0.0013792
-0.00136082
-0.00134248
0.0013242
0.00130597
0.0012878
0.00126968
0.00125162
0.00123362
0.00121568
0.0011978
0.00117999
0.00116224
0.00114455
0.00112693
0.00110938
0.0010919
0.00107448
0.00105714
0.00103987
0.00102268
0.00100556
0.000988519
0.000971554
0.000954668
0.000937862
0.000921136
0.000904492
0.000887931
0.000871455
0.000855063
0.000838758
0.00082254
0.00080641
0.000790369
0.000774419
0.00075856
0.000742792
0.000727118
0.000711538
0.000696052
0.000680662
0.000665369
0.000650173
0.000635076
0.000620077
0.000605179
0.000590381
0.000575684
0.00056109
0.000546599
0.000532212
0.000517929
0.000503751
0.000489679
0.000475713
0.000461855
0.000448104
0.000434462
0.000420928
0.000407505
0.000394191
0.000380988
0.000367897
0.000354917
0.00034205
0.000329295
0.000316653
0.000304126
0.000291712
0.000279413
0.00026723
0.000255161
0.000243209
0.000231372
0.000219652
0.000208049
0.000196564
0.000185195
0.000173945
0.000162813
0.000151799
0.000140903
0.000130126
0.000119469
0.00010893
9.85112e-05
8.82117e-05
7.8032e-05
6.7972e-05
5.80321e-05
4.82123e-05
3.85126e-05
2.89331e-05
1.9474e-05
1.01353e-05
9.16883e-07
-8.18109e-06
-1.71587e-05
-2.60158e-05
-3.47526e-05
-4.33691e-05
-5.18653e-05
-6.02414e-05
-6.84973e-05
-7.66332e-05
-8.46492e-05
-9.25454e-05
-0.000100322
-0.000107979
-0.000115517
-0.000122936
-0.000130236
-0.000137417
-0.000144479
-0.000151424
-0.00015825
-0.000164959
-0.00017155
-0.000178024
-0.000184381
-0.000190622
-0.000196746
-0.000202755
-0.000208648
-0.000214426
-0.000220089
-0.000225638
-0.000231073
-0.000236394
-0.000241602
-0.000246698
-0.000251681
-0.000256552
-0.000261313
-0.000265962
-0.000270501
-0.00027493
-0.00027925
-0.000283462
-0.000287565
-0.00029156
-0.000295449
-0.000299231
-0.000302907
-0.000306477
-0.000309943
-0.000313305
-0.000316563
-0.000319719
-0.000322772
-0.000325724
-0.000328575
-0.000331325
-0.000333976
-0.000336528
-0.000338982
-0.000341339
-0.000343599
-0.000345763
-0.000347831
-0.000349806
-0.000351686
-0.000353473
-0.000355168
-0.000356772
-0.000358284
-0.000359707
-0.000361041
-0.000362286
-0.000363444
-0.000364515
-0.0003655
-0.000366401
-0.000367217
-0.000367949
-0.000368599
-0.000369167
-0.000369655
-0.000370062
-0.00037039
-0.00037064
-0.000370813
-0.000370909
-0.000370929
-0.000370875
-0.000370747
-0.000370546
-0.000370273
-0.000369929
-0.000369515
-0.000369031
-0.000368479
-0.00036786
-0.000367174
-0.000366422
-0.000365606
-0.000364726
-0.000363783
-0.000362779
-0.000361713
-0.000360588
-0.000359403
-0.000358161
-0.000356861
-0.000355505
-0.000354094
-0.000352629
-0.000351111
-0.00034954
-0.000347917
-0.000346244
-0.000344522
-0.000342751
-0.000340933
-0.000339068
-0.000337158
-0.000335202
-0.000333203
-0.000331162
-0.000329078
-0.000326954
-0.00032479
-0.000322586
-0.000320345
-0.000318067
-0.000315753
-0.000313403
-0.00031102
-0.000308603
-0.000306154
-0.000303674
-0.000301163
-0.000298623
-0.000296054
-0.000293458
-0.000290835
-0.000288186
-0.000285512
-0.000282815
-0.000280095
-0.000277352
-0.000274589
-0.000271805
-0.000269002
-0.00026618
-0.000263341
-0.000260486
-0.000257614
-0.000254728
-0.000251828
-0.000248915
-0.000245989
-0.000243052
-0.000240105
-0.000237147
-0.000234182
-0.000231208
-0.000228227
-0.000225239
-0.000222247
-0.000219249
-0.000216248
-0.000213244
-0.000210238
-0.00020723
-0.000204222
-0.000201213
-0.000198206
-0.000195201
-0.000192198
-0.000189198
-0.000186202
-0.000183212
-0.000180226
-0.000177247
-0.000174275
-0.00017131
-0.000168354
-0.000165407
-0.00016247
-0.000159543
-0.000156628
-0.000153724
-0.000150833
-0.000147955
-0.000145091
-0.000142241
-0.000139407
-0.000136588
-0.000133785
-0.000131
-0.000128232
-0.000125482
-0.000122751
-0.000120039
-0.000117347
-0.000114676
-0.000112025
-0.000109396
-0.000106789
-0.000104205
-0.000101644
-9.91065e-05
-9.65932e-05
-9.41044e-05
-9.16407e-05
-8.92026e-05
-8.67906e-05
-8.4405e-05
-8.20463e-05
-7.9715e-05
-7.74115e-05
-7.51361e-05
-7.28894e-05
-7.06717e-05
-6.84834e-05
-6.63248e-05
-6.41965e-05
-6.20986e-05
-6.00315e-05
-5.79957e-05
-5.59914e-05
-5.4019e-05
-5.20787e-05
-5.01709e-05
-4.82958e-05
-4.64538e-05
-4.46451e-05
-4.287e-05
-4.11288e-05
-3.94217e-05
-3.77488e-05
-3.61106e-05
-3.45071e-05
-3.29386e-05
-3.14053e-05
-2.99073e-05
-2.84449e-05
-2.70182e-05
-2.56274e-05
-2.42726e-05
-2.2954e-05
-2.16717e-05
-2.04259e-05
-1.92166e-05
-1.80439e-05
-1.69079e-05
-1.58088e-05
-1.47466e-05
-1.37214e-05
-1.27332e-05
-1.1782e-05
-1.0868e-05
-9.99107e-06
-9.15134e-06
-8.34877e-06
-7.58338e-06
-6.85515e-06
-6.16408e-06
-5.51013e-06
-4.89327e-06
-4.31345e-06
-3.77063e-06
-3.26475e-06
-2.79573e-06
-2.3635e-06
-1.96797e-06
-1.60904e-06
-1.28661e-06
-1.00057e-06
-7.50789e-07
-5.37148e-07
-3.59505e-07
-2.17713e-07
-1.11617e-07
-4.10555e-08
-5.85639e-09

shape_id 2
num_samples 1600
0
0
98
0.5
0
0
371
-0.5
0
0
748
0.5
0
0
371
-0.5

shape_id 3
num_samples 886
0
0.000454949
0.000376876
-0.00502138
0.0105464
-0.00818492
-0.00927341
0.0200265
0.00649183
-0.0201743
-0.0170499
0.00748331
0.0236895
0.0178086
-0.00213968
-0.0199674
-0.0247188
-0.0154472
0.0013348
0.0169523
0.0249602
0.023126
0.0131715
-0.000783637
-0.0140855
-0.0230283
-0.0256563
-0.021892
-0.0131699
-0.0018143
0.00962298
0.0189146
0.0245198
0.0257401
0.0226943
0.0161644
0.00736835
-0.00228606
-0.0114274
-0.0188982
-0.0238719
-0.0259068
